 R(m), J_tot (kA m^-2), J_ext, J_bs, J_di, J_ps
  0.153704E+01  0.130489E+03  0.210784E+02  0.347292E+03  0.493353E+01 -0.253025E+03
  0.158704E+01  0.287300E+03  0.828876E+02  0.625978E+03  0.101220E+02 -0.445672E+03
  0.163704E+01  0.390356E+03  0.171571E+03  0.681392E+03  0.122334E+02 -0.483037E+03
  0.168704E+01  0.474423E+03  0.274782E+03  0.644767E+03  0.126307E+02 -0.457774E+03
  0.173704E+01  0.559253E+03  0.380909E+03  0.591733E+03  0.125508E+02 -0.423999E+03
  0.178704E+01  0.641098E+03  0.480400E+03  0.552183E+03  0.126056E+02 -0.402331E+03
  0.183704E+01  0.712939E+03  0.566310E+03  0.530602E+03  0.129498E+02 -0.395064E+03
  0.188704E+01  0.769525E+03  0.634368E+03  0.523523E+03  0.135382E+02 -0.398942E+03
  0.193704E+01  0.810943E+03  0.682758E+03  0.525715E+03  0.142757E+02 -0.410335E+03
  0.198704E+01  0.833315E+03  0.711668E+03  0.534683E+03  0.150762E+02 -0.426284E+03
  0.203704E+01  0.838877E+03  0.722760E+03  0.547735E+03  0.158793E+02 -0.444813E+03
  0.208704E+01  0.831763E+03  0.718620E+03  0.563102E+03  0.166437E+02 -0.464738E+03
  0.213704E+01  0.813069E+03  0.702263E+03  0.579637E+03  0.173445E+02 -0.485070E+03
  0.218704E+01  0.783538E+03  0.676762E+03  0.596492E+03  0.179748E+02 -0.505345E+03
  0.223704E+01  0.749000E+03  0.645016E+03  0.613063E+03  0.185347E+02 -0.525136E+03
  0.228704E+01  0.711578E+03  0.609552E+03  0.629074E+03  0.190261E+02 -0.544259E+03
  0.233704E+01  0.672245E+03  0.572471E+03  0.644188E+03  0.194550E+02 -0.562520E+03
  0.238704E+01  0.630861E+03  0.535428E+03  0.657928E+03  0.198338E+02 -0.579899E+03
  0.243704E+01  0.591220E+03  0.499692E+03  0.670507E+03  0.201720E+02 -0.596253E+03
  0.248704E+01  0.554125E+03  0.466150E+03  0.681979E+03  0.204737E+02 -0.611619E+03
  0.253704E+01  0.520030E+03  0.435385E+03  0.692309E+03  0.207406E+02 -0.625958E+03
  0.258704E+01  0.489300E+03  0.407730E+03  0.701316E+03  0.209710E+02 -0.639003E+03
  0.263704E+01  0.459813E+03  0.383309E+03  0.708952E+03  0.211677E+02 -0.650971E+03
  0.268704E+01  0.433598E+03  0.362112E+03  0.715147E+03  0.213311E+02 -0.661557E+03
  0.273704E+01  0.411020E+03  0.344007E+03  0.720122E+03  0.214539E+02 -0.670664E+03
  0.278704E+01  0.392035E+03  0.328781E+03  0.724041E+03  0.215247E+02 -0.678337E+03
  0.283704E+01  0.376349E+03  0.316165E+03  0.726768E+03  0.215293E+02 -0.684258E+03
  0.288704E+01  0.363973E+03  0.305858E+03  0.728065E+03  0.214508E+02 -0.687968E+03
  0.293704E+01  0.354916E+03  0.297544E+03  0.728204E+03  0.212682E+02 -0.689394E+03
  0.298704E+01  0.349016E+03  0.290902E+03  0.726802E+03  0.209579E+02 -0.687927E+03
  0.303704E+01  0.344807E+03  0.285613E+03  0.723594E+03  0.205005E+02 -0.683057E+03
  0.308704E+01  0.342629E+03  0.281385E+03  0.718633E+03  0.198813E+02 -0.675030E+03
  0.313704E+01  0.344226E+03  0.277952E+03  0.711033E+03  0.190782E+02 -0.661610E+03
  0.318704E+01  0.349381E+03  0.275072E+03  0.701384E+03  0.180645E+02 -0.643392E+03
  0.323704E+01  0.358305E+03  0.272540E+03  0.688207E+03  0.168183E+02 -0.618130E+03
  0.328704E+01  0.382520E+03  0.279437E+03  0.671475E+03  0.152704E+02 -0.585222E+03
  0.333704E+01  0.427747E+03  0.305048E+03  0.648260E+03  0.132860E+02 -0.540495E+03
  0.338704E+01  0.486017E+03  0.335162E+03  0.619469E+03  0.107907E+02 -0.482861E+03
  0.343704E+01  0.560195E+03  0.380642E+03  0.573301E+03  0.784365E+01 -0.405631E+03
  0.348704E+01  0.649013E+03  0.544302E+03  0.406824E+03  0.468030E+01 -0.309443E+03
  0.353704E+01  0.759382E+03  0.810471E+03  0.134700E+03  0.179984E+01 -0.188365E+03
  0.358704E+01  0.894368E+03  0.929919E+03  0.568768E+01  0.897140E-01 -0.424970E+02
  0.363704E+01  0.105251E+04  0.876500E+03  0.451203E+02  0.985996E+00  0.128964E+03
  0.368704E+01  0.123342E+04  0.622227E+03  0.280233E+03  0.651334E+01  0.323081E+03
  0.373704E+01  0.143438E+04  0.349740E+03  0.527556E+03  0.191144E+02  0.534251E+03
  0.378704E+01  0.163861E+04  0.281339E+03  0.564521E+03  0.410566E+02  0.749876E+03
  0.383704E+01  0.183879E+04  0.230816E+03  0.578088E+03  0.734575E+02  0.953839E+03
  0.388704E+01  0.203731E+04  0.224854E+03  0.574824E+03  0.115622E+03  0.112328E+04
  0.393704E+01  0.217844E+04  0.220322E+03  0.558619E+03  0.163881E+03  0.123750E+04
  0.398704E+01  0.224557E+04  0.220318E+03  0.531383E+03  0.211436E+03  0.128496E+04
  0.403704E+01  0.224025E+04  0.229257E+03  0.495408E+03  0.250802E+03  0.126661E+04
  0.408704E+01  0.216981E+04  0.251101E+03  0.452515E+03  0.276371E+03  0.119186E+04
  0.413704E+01  0.205073E+04  0.285907E+03  0.403899E+03  0.285729E+03  0.107655E+04
  0.418704E+01  0.189443E+04  0.325634E+03  0.352508E+03  0.279684E+03  0.938056E+03
  0.423705E+01  0.170756E+04  0.351964E+03  0.301196E+03  0.261450E+03  0.793895E+03
  0.428704E+01  0.149372E+04  0.339487E+03  0.255562E+03  0.236955E+03  0.662038E+03
  0.433704E+01  0.128361E+04  0.267400E+03  0.226449E+03  0.219133E+03  0.571433E+03
  0.438704E+01  0.121677E+04  0.140391E+03  0.237035E+03  0.244102E+03  0.595567E+03
  0.443704E+01  0.927655E+03  0.174255E+02  0.182269E+03  0.218666E+03  0.500573E+03
